Wavelength(micron)	Fp/F*(Blackbody ppm)	Fp/F*(Low albedo_specular ppm)	Fp/F*(Low albedo_Lambert ppm)	Fp/F*(High albedo_specular ppm)	Fp/F*(High albedo_Lambert ppm)	Fp/F*(Blackbody & heat fully redistribution ppm)
0.30	0.00	0.86	2.15	1.76	4.39	0.00
0.31	0.00	0.84	2.09	1.62	4.04	0.00
0.32	0.00	0.81	2.02	1.50	3.75	0.00
0.33	0.00	0.78	1.95	1.43	3.57	0.00
0.34	0.00	0.75	1.87	1.41	3.50	0.00
0.35	0.00	0.72	1.81	1.42	3.54	0.00
0.36	0.00	0.71	1.77	1.45	3.61	0.00
0.37	0.01	0.72	1.79	1.44	3.58	0.00
0.38	0.01	0.73	1.82	1.38	3.44	0.00
0.39	0.01	0.75	1.85	1.30	3.21	0.00
0.40	0.01	0.76	1.87	1.21	2.99	0.00
0.41	0.02	0.76	1.87	1.14	2.82	0.00
0.42	0.02	0.75	1.85	1.10	2.70	0.00
0.43	0.02	0.75	1.84	1.08	2.64	0.00
0.44	0.03	0.74	1.82	1.06	2.56	0.00
0.45	0.04	0.74	1.81	1.04	2.51	0.00
0.46	0.04	0.74	1.79	1.03	2.46	0.00
0.47	0.05	0.74	1.78	1.01	2.41	0.00
0.48	0.06	0.74	1.76	1.00	2.35	0.00
0.49	0.07	0.74	1.76	0.99	2.30	0.00
0.50	0.08	0.75	1.77	1.00	2.31	0.00
0.51	0.09	0.76	1.78	1.03	2.36	0.00
0.52	0.11	0.77	1.79	1.06	2.42	0.00
0.53	0.12	0.78	1.81	1.10	2.47	0.00
0.54	0.14	0.80	1.82	1.14	2.53	0.00
0.55	0.16	0.82	1.84	1.17	2.59	0.00
0.56	0.18	0.83	1.86	1.21	2.65	0.00
0.57	0.20	0.85	1.88	1.26	2.72	0.00
0.58	0.22	0.87	1.90	1.30	2.78	0.00
0.59	0.25	0.89	1.91	1.34	2.85	0.00
0.60	0.28	0.91	1.93	1.39	2.92	0.00
0.61	0.31	0.93	1.95	1.44	2.99	0.00
0.62	0.34	0.96	1.98	1.49	3.06	0.00
0.63	0.37	0.99	2.00	1.54	3.14	0.00
0.64	0.41	1.01	2.03	1.60	3.21	0.00
0.65	0.45	1.05	2.05	1.66	3.29	0.00
0.66	0.49	1.08	2.08	1.71	3.37	0.00
0.67	0.53	1.11	2.12	1.78	3.45	0.00
0.68	0.57	1.15	2.15	1.84	3.54	0.00
0.69	0.62	1.19	2.19	1.90	3.63	0.00
0.70	0.67	1.23	2.23	1.97	3.71	0.00
0.71	0.72	1.27	2.27	2.04	3.80	0.00
0.72	0.78	1.32	2.31	2.11	3.90	0.00
0.73	0.84	1.36	2.35	2.18	3.99	0.00
0.74	0.90	1.41	2.40	2.25	4.09	0.00
0.75	0.96	1.46	2.45	2.33	4.18	0.00
0.76	1.02	1.52	2.50	2.41	4.28	0.00
0.77	1.09	1.57	2.55	2.48	4.38	0.00
0.78	1.16	1.63	2.61	2.57	4.49	0.00
0.79	1.23	1.69	2.67	2.65	4.59	0.00
0.80	1.31	1.75	2.73	2.73	4.70	0.00
0.81	1.39	1.82	2.79	2.82	4.80	0.00
0.82	1.47	1.89	2.86	2.91	4.91	0.00
0.83	1.55	1.95	2.92	2.99	5.02	0.00
0.84	1.64	2.03	2.99	3.08	5.13	0.00
0.85	1.73	2.10	3.07	3.18	5.25	0.00
0.86	1.82	2.18	3.14	3.27	5.36	0.00
0.87	1.91	2.26	3.22	3.36	5.48	0.00
0.88	2.01	2.34	3.29	3.46	5.60	0.00
0.89	2.11	2.42	3.38	3.55	5.71	0.00
0.90	2.21	2.50	3.46	3.65	5.83	0.00
0.91	2.31	2.59	3.54	3.75	5.95	0.00
0.92	2.42	2.68	3.63	3.85	6.08	0.00
0.93	2.53	2.77	3.72	3.95	6.20	0.00
0.94	2.64	2.87	3.81	4.05	6.32	0.00
0.95	2.75	2.96	3.91	4.16	6.45	0.00
0.96	2.87	3.06	4.00	4.26	6.57	0.00
0.97	2.99	3.16	4.10	4.36	6.70	0.00
0.98	3.11	3.26	4.20	4.47	6.82	0.00
0.99	3.23	3.37	4.30	4.57	6.95	0.00
1.00	3.35	3.48	4.41	4.68	7.08	0.00
1.01	3.48	3.58	4.51	4.79	7.21	0.00
1.02	3.61	3.69	4.62	4.89	7.34	0.00
1.03	3.74	3.81	4.73	5.00	7.47	0.00
1.04	3.88	3.92	4.84	5.11	7.60	0.00
1.05	4.01	4.04	4.96	5.22	7.73	0.00
1.06	4.15	4.16	5.07	5.33	7.86	0.00
1.07	4.29	4.28	5.19	5.43	7.99	0.00
1.08	4.43	4.40	5.31	5.54	8.12	0.00
1.09	4.58	4.52	5.43	5.65	8.25	0.00
1.10	4.72	4.65	5.55	5.76	8.38	0.00
1.11	4.87	4.77	5.68	5.87	8.51	0.00
1.12	5.02	4.90	5.81	5.98	8.64	0.00
1.13	5.17	5.03	5.93	6.09	8.77	0.00
1.14	5.32	5.16	6.06	6.20	8.91	0.00
1.15	5.48	5.30	6.19	6.31	9.04	0.00
1.16	5.63	5.43	6.33	6.42	9.17	0.00
1.17	5.79	5.57	6.46	6.53	9.30	0.00
1.18	5.95	5.71	6.60	6.63	9.43	0.00
1.19	6.11	5.85	6.74	6.74	9.56	0.00
1.20	6.28	5.99	6.87	6.85	9.69	0.00
1.21	6.44	6.13	7.01	6.96	9.82	0.00
1.22	6.60	6.27	7.16	7.06	9.94	0.00
1.23	6.77	6.42	7.30	7.17	10.07	0.00
1.24	6.94	6.56	7.44	7.27	10.20	0.00
1.25	7.11	6.71	7.59	7.38	10.33	0.00
1.26	7.28	6.86	7.74	7.48	10.45	0.00
1.27	7.45	7.00	7.89	7.58	10.58	0.00
1.28	7.63	7.15	8.04	7.67	10.71	0.00
1.29	7.80	7.30	8.20	7.75	10.84	0.00
1.30	7.98	7.45	8.35	7.83	10.97	0.00
1.31	8.15	7.60	8.50	7.93	11.09	0.00
1.32	8.33	7.76	8.66	8.03	11.21	0.00
1.33	8.51	7.91	8.81	8.13	11.33	0.00
1.34	8.69	8.07	8.97	8.23	11.45	0.00
1.35	8.87	8.22	9.12	8.34	11.56	0.00
1.36	9.05	8.38	9.28	8.44	11.68	0.00
1.37	9.23	8.54	9.44	8.54	11.79	0.00
1.38	9.42	8.69	9.60	8.63	11.91	0.00
1.39	9.60	8.85	9.76	8.73	12.02	0.00
1.40	9.79	9.00	9.92	8.82	12.14	0.00
1.41	9.97	9.16	10.08	8.90	12.25	0.00
1.42	10.16	9.32	10.24	8.98	12.36	0.00
1.43	10.34	9.48	10.40	9.05	12.47	0.00
1.44	10.53	9.64	10.57	9.13	12.57	0.00
1.45	10.72	9.80	10.73	9.20	12.68	0.00
1.46	10.91	9.96	10.89	9.27	12.78	0.00
1.47	11.10	10.13	11.05	9.34	12.88	0.00
1.48	11.29	10.29	11.22	9.40	12.98	0.00
1.49	11.48	10.45	11.38	9.46	13.08	0.00
1.50	11.67	10.61	11.55	9.53	13.17	0.00
1.51	11.86	10.78	11.71	9.59	13.26	0.00
1.52	12.05	10.94	11.88	9.66	13.36	0.00
1.53	12.25	11.10	12.04	9.73	13.45	0.00
1.54	12.44	11.27	12.21	9.81	13.55	0.00
1.55	12.63	11.43	12.37	9.89	13.64	0.00
1.56	12.82	11.60	12.54	9.96	13.74	0.00
1.57	13.02	11.76	12.71	10.03	13.83	0.00
1.58	13.21	11.93	12.87	10.11	13.92	0.00
1.59	13.41	12.09	13.04	10.18	14.01	0.00
1.60	13.60	12.26	13.21	10.25	14.10	0.00
1.61	13.79	12.43	13.37	10.31	14.18	0.00
1.62	13.99	12.59	13.54	10.36	14.26	0.00
1.63	14.18	12.76	13.71	10.41	14.34	0.00
1.64	14.38	12.93	13.87	10.46	14.41	0.00
1.65	14.57	13.09	14.04	10.51	14.49	0.00
1.66	14.77	13.26	14.21	10.56	14.56	0.00
1.67	14.97	13.42	14.38	10.61	14.63	0.00
1.68	15.16	13.59	14.54	10.66	14.71	0.00
1.69	15.36	13.76	14.71	10.72	14.79	0.00
1.70	15.55	13.93	14.88	10.78	14.86	0.00
1.71	15.75	14.09	15.05	10.84	14.94	0.00
1.72	15.94	14.26	15.21	10.90	15.01	0.00
1.73	16.14	14.43	15.38	10.95	15.09	0.00
1.74	16.33	14.60	15.55	11.01	15.16	0.00
1.75	16.53	14.76	15.72	11.06	15.23	0.00
1.76	16.72	14.93	15.88	11.11	15.30	0.00
1.77	16.92	15.09	16.05	11.16	15.36	0.00
1.78	17.11	15.26	16.22	11.21	15.43	0.00
1.79	17.31	15.42	16.38	11.26	15.50	0.00
1.80	17.50	15.59	16.55	11.32	15.57	0.00
1.81	17.70	15.76	16.72	11.37	15.64	0.00
1.82	17.89	15.92	16.88	11.42	15.70	0.00
1.83	18.09	16.09	17.05	11.48	15.77	0.00
1.84	18.28	16.26	17.22	11.53	15.83	0.00
1.85	18.47	16.42	17.38	11.58	15.90	0.00
1.86	18.67	16.59	17.55	11.62	15.96	0.00
1.87	18.86	16.76	17.72	11.67	16.02	0.00
1.88	19.05	16.92	17.88	11.72	16.08	0.00
1.89	19.25	17.09	18.05	11.76	16.14	0.00
1.90	19.44	17.25	18.21	11.81	16.20	0.00
1.91	19.63	17.42	18.38	11.85	16.26	0.00
1.92	19.82	17.58	18.54	11.90	16.31	0.00
1.93	20.01	17.75	18.71	11.94	16.37	0.00
1.94	20.21	17.91	18.87	11.98	16.43	0.00
1.95	20.40	18.07	19.03	12.03	16.48	0.00
1.96	20.59	18.23	19.20	12.07	16.54	0.00
1.97	20.78	18.39	19.36	12.12	16.60	0.00
1.98	20.97	18.56	19.52	12.17	16.65	0.00
1.99	21.16	18.72	19.68	12.21	16.71	0.00
2.00	21.35	18.88	19.84	12.25	16.76	0.00
2.01	21.54	19.04	20.01	12.29	16.82	0.00
2.02	21.72	19.20	20.17	12.34	16.87	0.00
2.03	21.91	19.36	20.33	12.38	16.92	0.00
2.04	22.10	19.52	20.49	12.42	16.97	0.00
2.05	22.29	19.68	20.65	12.46	17.02	0.00
2.06	22.47	19.84	20.81	12.49	17.07	0.00
2.07	22.66	20.00	20.97	12.53	17.12	0.00
2.08	22.85	20.16	21.13	12.57	17.17	0.00
2.09	23.03	20.32	21.29	12.60	17.21	0.00
2.10	23.22	20.48	21.45	12.64	17.26	0.00
2.11	23.40	20.64	21.61	12.67	17.31	0.00
2.12	23.58	20.80	21.77	12.72	17.36	0.00
2.13	23.77	20.96	21.92	12.76	17.41	0.00
2.14	23.95	21.11	22.08	12.80	17.46	0.00
2.15	24.13	21.27	22.24	12.84	17.50	0.00
2.16	24.32	21.43	22.40	12.88	17.55	0.00
2.17	24.50	21.58	22.55	12.92	17.60	0.00
2.18	24.68	21.74	22.71	12.96	17.65	0.00
2.19	24.86	21.90	22.86	13.00	17.69	0.00
2.20	25.04	22.05	23.02	13.03	17.74	0.00
2.21	25.22	22.20	23.17	13.07	17.78	0.00
2.22	25.40	22.36	23.33	13.11	17.83	0.00
2.23	25.58	22.51	23.48	13.14	17.87	0.00
2.24	25.76	22.67	23.63	13.18	17.91	0.00
2.25	25.94	22.82	23.79	13.21	17.96	0.00
2.26	26.11	22.97	23.94	13.24	18.00	0.00
2.27	26.29	23.12	24.09	13.28	18.04	0.00
2.28	26.47	23.27	24.24	13.31	18.08	0.00
2.29	26.64	23.43	24.39	13.34	18.12	0.00
2.30	26.82	23.58	24.54	13.37	18.16	0.00
2.31	26.99	23.73	24.69	13.40	18.20	0.00
2.32	27.17	23.88	24.84	13.43	18.23	0.00
2.33	27.34	24.03	24.99	13.47	18.28	0.00
2.34	27.51	24.17	25.14	13.51	18.32	0.00
2.35	27.69	24.32	25.29	13.55	18.37	0.00
2.36	27.86	24.47	25.44	13.59	18.41	0.00
2.37	28.03	24.62	25.59	13.62	18.45	0.00
2.38	28.20	24.77	25.73	13.66	18.50	0.00
2.39	28.37	24.91	25.88	13.70	18.54	0.00
2.40	28.54	25.06	26.03	13.74	18.58	0.00
2.41	28.71	25.20	26.17	13.77	18.62	0.00
2.42	28.88	25.35	26.32	13.81	18.66	0.00
2.43	29.05	25.49	26.46	13.84	18.70	0.00
2.44	29.21	25.64	26.61	13.88	18.74	0.00
2.45	29.38	25.78	26.75	13.91	18.78	0.00
2.46	29.55	25.92	26.89	13.94	18.82	0.00
2.47	29.71	26.07	27.04	13.98	18.86	0.00
2.48	29.88	26.21	27.18	14.01	18.90	0.00
2.49	30.04	26.35	27.32	14.04	18.93	0.00
2.50	30.21	26.50	27.46	14.07	18.97	0.00
2.51	30.37	26.64	27.61	14.10	19.01	0.00
2.52	30.53	26.78	27.75	14.14	19.04	0.00
2.53	30.70	26.93	27.89	14.17	19.08	0.00
2.54	30.86	27.07	28.03	14.20	19.11	0.00
2.55	31.02	27.21	28.17	14.23	19.15	0.00
2.56	31.18	27.35	28.31	14.30	19.22	0.00
2.57	31.34	27.49	28.45	14.38	19.29	0.00
2.58	31.50	27.63	28.59	14.45	19.36	0.00
2.59	31.66	27.77	28.73	14.53	19.43	0.00
2.60	31.82	27.91	28.87	14.60	19.50	0.00
2.61	31.98	28.05	29.01	14.68	19.57	0.00
2.62	32.14	28.18	29.14	14.76	19.64	0.00
2.63	32.29	28.32	29.28	14.83	19.71	0.00
2.64	32.45	28.46	29.42	14.91	19.78	0.00
2.65	32.60	28.59	29.55	14.98	19.85	0.00
2.66	32.76	28.73	29.69	15.06	19.92	0.00
2.67	32.91	28.87	29.82	15.13	19.99	0.00
2.68	33.07	29.00	29.96	15.21	20.06	0.00
2.69	33.22	29.14	30.09	15.28	20.13	0.00
2.70	33.38	29.27	30.22	15.36	20.20	0.00
2.71	33.53	29.40	30.36	15.43	20.27	0.00
2.72	33.68	29.54	30.49	15.50	20.33	0.00
2.73	33.83	29.67	30.62	15.56	20.40	0.00
2.74	33.98	29.80	30.75	15.63	20.46	0.00
2.75	34.13	29.93	30.88	15.69	20.52	0.00
2.76	34.28	30.06	31.01	15.76	20.58	0.00
2.77	34.43	30.19	31.14	15.82	20.64	0.00
2.78	34.58	30.32	31.27	15.89	20.70	0.00
2.79	34.73	30.44	31.40	15.95	20.77	0.00
2.80	34.88	30.57	31.52	16.02	20.83	0.00
2.81	35.02	30.70	31.65	16.08	20.89	0.00
2.82	35.17	30.82	31.78	16.15	20.95	0.00
2.83	35.32	30.95	31.90	16.21	21.01	0.00
2.84	35.46	31.08	32.03	16.27	21.07	0.00
2.85	35.61	31.20	32.15	16.34	21.13	0.00
2.86	35.75	31.33	32.28	16.40	21.19	0.00
2.87	35.89	31.45	32.40	16.47	21.25	0.00
2.88	36.04	31.57	32.53	16.53	21.32	0.00
2.89	36.18	31.70	32.65	16.59	21.38	0.00
2.90	36.32	31.82	32.78	16.66	21.44	0.00
2.91	36.46	31.95	32.90	16.72	21.50	0.00
2.92	36.60	32.07	33.02	16.79	21.56	0.00
2.93	36.75	32.19	33.15	16.85	21.62	0.00
2.94	36.89	32.32	33.27	16.91	21.68	0.00
2.95	37.02	32.44	33.39	16.98	21.74	0.00
2.96	37.16	32.56	33.51	17.04	21.80	0.00
2.97	37.30	32.68	33.63	17.10	21.86	0.00
2.98	37.44	32.80	33.75	17.17	21.92	0.00
2.99	37.58	32.92	33.87	17.23	21.98	0.00
3.00	37.71	33.04	33.99	17.29	22.04	0.00
3.01	37.85	33.16	34.11	17.36	22.10	0.00
3.02	37.99	33.28	34.23	17.42	22.16	0.00
3.03	38.12	33.40	34.35	17.48	22.22	0.00
3.04	38.26	33.52	34.47	17.54	22.28	0.00
3.05	38.39	33.64	34.59	17.61	22.34	0.00
3.06	38.52	33.76	34.70	17.67	22.40	0.00
3.07	38.66	33.87	34.82	17.73	22.46	0.00
3.08	38.79	33.99	34.93	17.79	22.52	0.00
3.09	38.92	34.10	35.05	17.86	22.58	0.00
3.10	39.05	34.21	35.16	17.92	22.64	0.00
3.11	39.19	34.33	35.27	17.98	22.70	0.00
3.12	39.32	34.44	35.39	18.04	22.76	0.00
3.13	39.45	34.55	35.50	18.11	22.81	0.00
3.14	39.58	34.67	35.61	18.17	22.87	0.00
3.15	39.71	34.78	35.72	18.23	22.93	0.00
3.16	39.83	34.89	35.84	18.29	22.99	0.00
3.17	39.96	35.00	35.95	18.35	23.05	0.00
3.18	40.09	35.11	36.06	18.42	23.11	0.00
3.19	40.22	35.22	36.17	18.48	23.17	0.00
3.20	40.35	35.33	36.28	18.54	23.23	0.00
3.21	40.47	35.44	36.39	18.60	23.29	0.00
3.22	40.60	35.55	36.49	18.66	23.34	0.00
3.23	40.72	35.66	36.60	18.73	23.40	0.00
3.24	40.85	35.76	36.71	18.78	23.45	0.00
3.25	40.97	35.87	36.82	18.80	23.48	0.00
3.26	41.10	35.98	36.93	18.83	23.51	0.00
3.27	41.22	36.09	37.04	18.85	23.54	0.00
3.28	41.34	36.20	37.14	18.87	23.56	0.00
3.29	41.46	36.31	37.25	18.90	23.59	0.00
3.30	41.59	36.41	37.36	18.92	23.62	0.00
3.31	41.71	36.52	37.46	18.94	23.64	0.00
3.32	41.83	36.63	37.57	18.97	23.67	0.00
3.33	41.95	36.73	37.68	18.99	23.69	0.00
3.34	42.07	36.84	37.78	19.01	23.72	0.00
3.35	42.19	36.94	37.89	19.03	23.74	0.00
3.36	42.31	37.05	37.99	19.05	23.77	0.00
3.37	42.43	37.15	38.10	19.07	23.79	0.00
3.38	42.55	37.26	38.20	19.09	23.82	0.00
3.39	42.66	37.36	38.30	19.11	23.84	0.00
3.40	42.78	37.47	38.41	19.13	23.86	0.00
3.41	42.90	37.57	38.51	19.15	23.89	0.00
3.42	43.02	37.67	38.61	19.17	23.91	0.00
3.43	43.13	37.77	38.71	19.19	23.93	0.00
3.44	43.25	37.88	38.82	19.27	24.00	0.00
3.45	43.36	37.98	38.92	19.34	24.07	0.00
3.46	43.48	38.08	39.02	19.41	24.14	0.00
3.47	43.59	38.18	39.12	19.49	24.21	0.00
3.48	43.71	38.28	39.22	19.56	24.27	0.00
3.49	43.82	38.38	39.32	19.64	24.34	0.00
3.50	43.93	38.48	39.42	19.71	24.41	0.00
3.51	44.05	38.58	39.52	19.79	24.48	0.00
3.52	44.16	38.68	39.61	19.86	24.55	0.00
3.53	44.27	38.78	39.71	19.94	24.62	0.00
3.54	44.38	38.87	39.81	20.01	24.69	0.00
3.55	44.49	38.97	39.91	20.09	24.76	0.00
3.56	44.60	39.07	40.01	20.16	24.82	0.00
3.57	44.71	39.17	40.10	20.24	24.89	0.00
3.58	44.82	39.26	40.20	20.31	24.96	0.00
3.59	44.93	39.36	40.29	20.38	25.03	0.00
3.60	45.04	39.46	40.39	20.46	25.10	0.00
3.61	45.15	39.55	40.49	20.53	25.17	0.00
3.62	45.26	39.65	40.58	20.61	25.24	0.00
3.63	45.36	39.74	40.68	20.68	25.31	0.00
3.64	45.47	39.84	40.77	20.76	25.38	0.00
3.65	45.58	39.93	40.86	20.91	25.51	0.00
3.66	45.68	40.02	40.96	21.07	25.65	0.00
3.67	45.79	40.12	41.05	21.22	25.78	0.00
3.68	45.90	40.21	41.14	21.37	25.92	0.00
3.69	46.00	40.30	41.24	21.53	26.06	0.00
3.70	46.11	40.40	41.33	21.68	26.19	0.00
3.71	46.21	40.49	41.42	21.84	26.33	0.00
3.72	46.31	40.59	41.52	22.00	26.47	0.00
3.73	46.42	40.68	41.61	22.15	26.61	0.00
3.74	46.52	40.78	41.71	22.31	26.75	0.00
3.75	46.62	40.87	41.80	22.47	26.89	0.00
3.76	46.73	40.97	41.89	22.66	27.06	0.00
3.77	46.83	41.06	41.99	22.90	27.26	0.00
3.78	46.93	41.16	42.08	23.13	27.47	0.00
3.79	47.03	41.25	42.17	23.37	27.67	0.00
3.80	47.13	41.34	42.27	23.60	27.88	0.00
3.81	47.23	41.44	42.36	23.84	28.09	0.00
3.82	47.33	41.53	42.45	24.08	28.30	0.00
3.83	47.43	41.62	42.54	24.32	28.51	0.00
3.84	47.53	41.72	42.64	24.58	28.74	0.00
3.85	47.63	41.81	42.73	24.85	28.97	0.00
3.86	47.73	41.90	42.82	25.12	29.21	0.00
3.87	47.83	41.99	42.91	25.40	29.45	0.00
3.88	47.93	42.08	43.00	25.67	29.69	0.00
3.89	48.02	42.17	43.09	25.94	29.93	0.00
3.90	48.12	42.27	43.18	26.22	30.17	0.00
3.91	48.22	42.36	43.27	26.50	30.41	0.00
3.92	48.32	42.45	43.36	26.79	30.67	0.00
3.93	48.41	42.54	43.45	27.08	30.93	0.00
3.94	48.51	42.63	43.53	27.38	31.18	0.00
3.95	48.60	42.72	43.62	27.67	31.44	0.00
3.96	48.70	42.80	43.71	27.97	31.70	0.00
3.97	48.79	42.89	43.80	28.26	31.96	0.00
3.98	48.89	42.98	43.89	28.56	32.22	0.00
3.99	48.98	43.07	43.97	28.86	32.48	0.00
4.00	49.07	43.16	44.07	29.15	32.74	0.00
4.01	49.17	43.26	44.16	29.44	33.00	0.00
4.02	49.26	43.35	44.25	29.74	33.25	0.00
4.03	49.35	43.44	44.34	30.03	33.51	0.00
4.04	49.45	43.53	44.43	30.33	33.77	0.00
4.05	49.54	43.63	44.52	30.62	34.03	0.00
4.06	49.63	43.72	44.61	30.92	34.29	0.00
4.07	49.72	43.81	44.70	31.22	34.56	0.00
4.08	49.81	43.90	44.79	31.52	34.82	0.00
4.09	49.90	43.99	44.88	31.82	35.09	0.00
4.10	49.99	44.08	44.96	32.12	35.36	0.00
4.11	50.08	44.17	45.05	32.43	35.62	0.00
4.12	50.17	44.26	45.14	32.73	35.89	0.00
4.13	50.26	44.35	45.23	33.04	36.16	0.00
4.14	50.35	44.44	45.32	33.36	36.45	0.00
4.15	50.44	44.53	45.40	33.73	36.77	0.00
4.16	50.53	44.62	45.49	34.11	37.10	0.00
4.17	50.62	44.71	45.58	34.49	37.44	0.00
4.18	50.71	44.80	45.67	34.89	37.79	0.00
4.19	50.79	44.89	45.75	35.34	38.18	0.00
4.20	50.88	44.97	45.84	35.80	38.58	0.00
4.21	50.97	45.06	45.93	36.25	38.98	0.00
4.22	51.05	45.15	46.01	36.69	39.37	0.00
4.23	51.14	45.24	46.10	37.11	39.74	0.00
4.24	51.23	45.32	46.18	37.54	40.11	0.00
4.25	51.31	45.41	46.27	37.96	40.49	0.00
4.26	51.40	45.50	46.35	38.39	40.86	0.00
4.27	51.48	45.59	46.44	38.77	41.20	0.00
4.28	51.57	45.67	46.52	39.15	41.53	0.00
4.29	51.65	45.76	46.61	39.53	41.87	0.00
4.30	51.73	45.85	46.69	39.91	42.20	0.00
4.31	51.82	45.94	46.78	40.29	42.54	0.00
4.32	51.90	46.04	46.88	40.77	42.96	0.00
4.33	51.98	46.13	46.97	41.46	43.57	0.00
4.34	52.07	46.23	47.06	42.19	44.20	0.00
4.35	52.15	46.32	47.15	43.13	45.03	0.00
4.36	52.23	46.42	47.24	44.08	45.85	0.00
4.37	52.31	46.51	47.33	45.09	46.74	0.00
4.38	52.40	46.61	47.42	46.37	47.85	0.00
4.39	52.48	46.70	47.52	47.33	48.69	0.00
4.40	52.56	46.79	47.61	47.53	48.87	0.00
4.41	52.64	46.89	47.70	47.72	49.05	0.00
4.42	52.72	46.98	47.79	47.92	49.23	0.00
4.43	52.80	47.07	47.88	48.12	49.41	0.00
4.44	52.88	47.17	47.97	48.32	49.59	0.00
4.45	52.96	47.26	48.06	48.52	49.77	0.00
4.46	53.04	47.35	48.15	48.71	49.95	0.00
4.47	53.12	47.45	48.24	48.91	50.13	0.00
4.48	53.20	47.55	48.33	49.14	50.34	0.00
4.49	53.28	47.64	48.43	49.40	50.57	0.00
4.50	53.36	47.74	48.52	49.66	50.81	0.00
4.51	53.43	47.84	48.62	49.92	51.04	0.00
4.52	53.51	47.94	48.71	50.18	51.28	0.00
4.53	53.59	48.04	48.80	50.45	51.51	0.00
4.54	53.67	48.14	48.90	50.71	51.75	0.00
4.55	53.74	48.24	48.99	50.97	51.99	0.00
4.56	53.82	48.33	49.09	51.23	52.22	0.00
4.57	53.90	48.43	49.18	51.80	52.72	0.00
4.58	53.97	48.53	49.27	52.37	53.22	0.00
4.59	54.05	48.63	49.37	52.94	53.73	0.00
4.60	54.12	48.73	49.46	53.51	54.23	0.00
4.61	54.20	48.82	49.55	53.76	54.46	0.00
4.62	54.27	48.92	49.64	53.97	54.65	0.00
4.63	54.35	49.02	49.74	54.18	54.85	0.00
4.64	54.42	49.11	49.83	54.40	55.04	0.00
4.65	54.50	49.21	49.92	54.61	55.24	0.00
4.66	54.57	49.31	50.02	54.83	55.43	0.00
4.67	54.65	49.40	50.11	55.04	55.63	0.00
4.68	54.72	49.50	50.20	55.26	55.82	0.00
4.69	54.79	49.59	50.29	55.47	56.02	0.00
4.70	54.87	49.69	50.38	55.63	56.17	0.00
4.71	54.94	49.78	50.47	55.76	56.29	0.00
4.72	55.01	49.88	50.56	55.88	56.40	0.00
4.73	55.09	49.97	50.65	56.01	56.52	0.00
4.74	55.16	50.07	50.74	56.13	56.64	0.00
4.75	55.23	50.16	50.83	56.26	56.76	0.00
4.76	55.30	50.26	50.92	56.38	56.87	0.00
4.77	55.37	50.35	51.01	56.51	56.99	0.00
4.78	55.44	50.44	51.10	56.63	57.11	0.00
4.79	55.51	50.54	51.19	56.75	57.22	0.00
4.80	55.59	50.63	51.28	56.88	57.34	0.00
4.81	55.66	50.72	51.37	57.00	57.46	0.00
4.82	55.73	50.82	51.46	57.13	57.57	0.00
4.83	55.80	50.91	51.55	57.25	57.69	0.00
4.84	55.87	51.00	51.64	57.37	57.81	0.00
4.85	55.94	51.16	51.78	57.50	57.92	0.00
4.86	56.00	51.32	51.93	57.62	58.04	0.00
4.87	56.07	51.48	52.08	57.74	58.15	0.00
4.88	56.14	51.64	52.22	57.87	58.27	0.00
4.89	56.21	51.80	52.37	57.97	58.37	0.00
4.90	56.28	51.97	52.52	58.07	58.46	0.00
4.91	56.35	52.08	52.62	58.16	58.55	0.00
4.92	56.42	52.17	52.71	58.25	58.63	0.00
4.93	56.48	52.26	52.79	58.34	58.72	0.00
4.94	56.55	52.35	52.88	58.43	58.81	0.00
4.95	56.62	52.44	52.97	58.52	58.90	0.00
4.96	56.69	52.53	53.05	58.61	58.98	0.00
4.97	56.75	52.62	53.14	58.70	59.07	0.00
4.98	56.82	52.70	53.22	58.79	59.16	0.00
4.99	56.89	52.79	53.31	58.88	59.24	0.00
5.00	56.95	52.88	53.39	58.97	59.33	0.00
5.01	57.02	52.97	53.48	59.06	59.42	0.00
5.02	57.08	53.06	53.56	59.15	59.50	0.00
5.03	57.15	53.15	53.65	59.24	59.59	0.00
5.04	57.21	53.24	53.73	59.33	59.67	0.00
5.05	57.28	53.33	53.82	59.42	59.76	0.00
5.06	57.34	53.41	53.90	59.50	59.84	0.00
5.07	57.41	53.49	53.97	59.59	59.93	0.00
5.08	57.47	53.57	54.05	59.68	60.01	0.00
5.09	57.54	53.65	54.13	59.77	60.10	0.00
5.10	57.60	53.73	54.21	59.86	60.18	0.00
5.11	57.67	53.81	54.28	59.95	60.27	0.00
5.12	57.73	53.89	54.36	60.03	60.35	0.00
5.13	57.79	53.97	54.44	60.10	60.42	0.00
5.14	57.86	54.05	54.51	60.17	60.49	0.00
5.15	57.92	54.12	54.59	60.24	60.55	0.00
5.16	57.98	54.20	54.67	60.31	60.62	0.00
5.17	58.04	54.28	54.74	60.38	60.69	0.00
5.18	58.11	54.36	54.82	60.45	60.76	0.00
5.19	58.17	54.44	54.89	60.52	60.83	0.00
5.20	58.23	54.52	54.97	60.59	60.90	0.00
5.21	58.29	54.60	55.04	60.66	60.97	0.00
5.22	58.35	54.67	55.12	60.73	61.04	0.00
5.23	58.42	54.75	55.19	60.80	61.10	0.00
5.24	58.48	54.83	55.27	60.87	61.17	0.00
5.25	58.54	54.91	55.34	60.94	61.24	0.00
5.26	58.60	54.98	55.42	61.01	61.31	0.00
5.27	58.66	55.06	55.49	61.07	61.37	0.00
5.28	58.72	55.14	55.57	61.14	61.44	0.00
5.29	58.78	55.22	55.64	61.21	61.51	0.00
5.30	58.84	55.29	55.72	61.28	61.58	0.00
5.31	58.90	55.37	55.79	61.35	61.64	0.00
5.32	58.96	55.44	55.86	61.42	61.71	0.00
5.33	59.02	55.52	55.93	61.49	61.78	0.00
5.34	59.08	55.59	56.00	61.57	61.85	0.00
5.35	59.14	55.66	56.07	61.64	61.93	0.00
5.36	59.20	55.73	56.14	61.72	62.00	0.00
5.37	59.26	55.80	56.21	61.80	62.08	0.00
